( CM energy=  13.000TeV, collider:   1
( HqT2.0 runs with LHAPDF routines
( PDF4LHC15_nnlo_100       , mem=  0
( alpha_S( 125.09 GeV) = 0.112628
( Mh=  125.09GeV, complex plane
( Q=   125.09GeV
( mur= 125.09GeV, muf= 125.09GeV
( g= 0.00, norm=  0
( qt             res            asym           fixor          matched        switched
  5.0000000E+00  2.4254655E-01
  7.0000000E+00  2.8056889E-01
  9.0000000E+00  2.9732779E-01
  1.1000000E+01  3.0076599E-01
  1.3000000E+01  2.9610571E-01
  1.5000000E+01  2.8666954E-01
  1.7000000E+01  2.7455203E-01
  1.9000000E+01  2.6107279E-01
  2.1000000E+01  2.4706229E-01
  2.3000000E+01  2.3304004E-01
  2.5000000E+01  2.1932626E-01
  2.7000000E+01  2.0611254E-01
  2.9000000E+01  1.9350668E-01
  3.1000000E+01  1.8156225E-01
  3.3000000E+01  1.7029850E-01
  3.5000000E+01  1.5971050E-01
  3.7000000E+01  1.4978110E-01
  3.9000000E+01  1.4048413E-01
  4.1000000E+01  1.3178627E-01
  4.3000000E+01  1.2365682E-01
  4.5000000E+01  1.1605761E-01
  4.7000000E+01  1.0895773E-01
  4.9000000E+01  1.0232312E-01
  5.1000000E+01  9.6122221E-02
  5.3000000E+01  9.0328007E-02
  5.5000000E+01  8.4907193E-02
  5.7000000E+01  7.9835858E-02
  5.9000000E+01  7.5084674E-02
  6.1000000E+01  7.0645272E-02
  6.3000000E+01  6.6475480E-02
  6.5000000E+01  6.2572617E-02
  6.7000000E+01  5.8912877E-02
  6.9000000E+01  5.5479449E-02
  7.1000000E+01  5.2256785E-02
  7.3000000E+01  4.9230496E-02
  7.5000000E+01  4.6387282E-02
  7.7000000E+01  4.3714806E-02
  7.9000000E+01  4.1201689E-02
  8.1000000E+01  3.8837369E-02
  8.3000000E+01  3.6612068E-02
  8.5000000E+01  3.4516722E-02
  8.7000000E+01  3.2542927E-02
  8.9000000E+01  3.0682878E-02
  9.1000000E+01  2.8929359E-02
  9.3000000E+01  2.7275622E-02
  9.5000000E+01  2.5715426E-02
  9.7000000E+01  2.4242957E-02
  9.9000000E+01  2.2852782E-02
  1.0100000E+02  2.1539941E-02
  1.0300000E+02  2.0299666E-02
  1.0500000E+02  1.9127620E-02
